Phase,Hip,Knee,dHip_dphi,dKnee_dphi
0.0,0.29698386408354177,-0.6718381370265923,0.011029165143722874,-0.022116369586009377
0.0041336745441962735,0.2970289977997781,-0.6719286256948658,0.010808238407308934,-0.02166549925061727
0.008267349088392547,0.29707322213688114,-0.6720172585923927,0.010589179303833535,-0.021218490119927397
0.012401023632588822,0.297116544815038,-0.6721040516801372,0.010371987833296455,-0.020775342193940213
0.016534698176785094,0.2971589735544351,-0.6721890209190619,0.010156663995697918,-0.020336055472655698
0.02066837272098137,0.29720051607525966,-0.6722721822701316,0.009943207791037707,-0.019900629956073886
0.024802047265177644,0.29724118009769773,-0.6723535516943091,0.009731619219315816,-0.019469065644194296
0.028935721809373916,0.29728097334193654,-0.6724331451525583,0.009521898280532674,-0.019041362537017357
0.03306939635357019,0.29731990352816257,-0.6725109786058423,0.009314044974687762,-0.01861752063454317
0.03720307089776646,0.29735797837656286,-0.6725870680151255,0.009108059301781265,-0.018197539936771163
0.04133674544196274,0.29739520560732374,-0.6726614293413709,0.008903941261813316,-0.017781420443702296
0.045470419986159014,0.2974315929406324,-0.6727340785455425,0.008701690854783582,-0.017369162155335627
0.04960409453035529,0.29746714809667507,-0.6728050315886032,0.008501308080692493,-0.016960765071671678
0.053737769074551564,0.297501878795639,-0.6728743044315171,0.008302792939539743,-0.016556229192710006
0.05787144361874783,0.2975357927577106,-0.6729419130352479,0.008106145431325512,-0.016155554518451617
0.062005118162944114,0.29756889770307654,-0.6730078733607591,0.00791136555604961,-0.015758741048895252
0.06613879270714038,0.29760120135192375,-0.6730722013690137,0.0077184533137122525,-0.015365788784041556
0.07027246725133666,0.2976327114244391,-0.6731349130209764,0.007527408704313125,-0.014976697723889975
0.07440614179553293,0.29766343564080894,-0.6731960242776098,0.0073382317278526,-0.014591467868441805
0.0785398163397292,0.29769338172122034,-0.673255551099878,0.00715092238433054,-0.014210099217695556
0.08267349088392548,0.29772255738585973,-0.6733135094487442,0.006965480673746792,-0.013832591771652336
0.08680716542812175,0.29775097035491427,-0.6733699152851728,0.0067819065961014936,-0.013458945530311475
0.09094083997231803,0.2977786283485702,-0.6734247845701262,0.006600200151394731,-0.013089160493672978
0.0950745145165143,0.2978055390870147,-0.6734781332645691,0.006420361339626363,-0.012723236661737566
0.09920818906071058,0.2978317102904341,-0.6735299773294643,0.006242390160796251,-0.012361174034504237
0.10334186360490684,0.29785714967901555,-0.673580332725776,0.006066286614904669,-0.012002972611973872
0.10747553814910313,0.2978818649729454,-0.673629215414467,0.005892050701951598,-0.011648632394146048
0.1116092126932994,0.29790586389241064,-0.673676641356502,0.005719682421937033,-0.01129815338102064
0.11574288723749566,0.2979291541575978,-0.6737226265128432,0.0055491817748607765,-0.010951535572597808
0.11987656178169194,0.29795174348869385,-0.6737671868444556,0.005380548760722751,-0.01060877896887712
0.12401023632588823,0.2979736396058854,-0.6738103383123019,0.0052137833795235095,-0.010269883569859795
0.12814391087008448,0.29799485022935923,-0.6738520968773458,0.005048885631262604,-0.00993484937554455
0.13227758541428075,0.29801538307930203,-0.6738924785005511,0.00488585551594007,-0.009603676385932059
0.13641125995847705,0.2980352458759006,-0.6739314991428815,0.004724693033555934,-0.00927636460102194
0.14054493450267333,0.29805444633934153,-0.6739691747653004,0.004565398184110326,-0.008952914020814724
0.14467860904686958,0.2980729921898116,-0.6740055213287711,0.004407970967603028,-0.00863332464530964
0.14881228359106585,0.29809089114749765,-0.6740405547942577,0.004252411384034212,-0.00831759647450743
0.15294595813526216,0.2981081509325865,-0.6740742911227237,0.004098719433403853,-0.008005729508407763
0.1570796326794584,0.29812477926526476,-0.6741067462751323,0.003946895115711934,-0.007697723747010707
0.16121330722365468,0.29814078386571896,-0.6741379362124474,0.0037969384309584665,-0.007393579190316191
0.16534698176785095,0.298156172454136,-0.6741678768956322,0.003648849379143372,-0.007093295838324208
0.16948065631204723,0.2981709527507029,-0.6741965842856511,0.003502627960266836,-0.006796873691034863
0.1736143308562435,0.298185132475606,-0.6742240743434671,0.003358274174328553,-0.006504312748448038
0.17774800540043978,0.2981987193490321,-0.6742503630300438,0.0032157880213288075,-0.006215613010563961
0.18188167994463605,0.2982117210911681,-0.6742754663063449,0.0030751695012674607,-0.00593077447738221
0.18601535448883233,0.29822414542220066,-0.674299400133334,0.002936418614144558,-0.0056497971489031865
0.1901490290330286,0.29823600006231654,-0.6743221804719749,0.002799535359960116,-0.005372681025126613
0.19428270357722488,0.29824729273170236,-0.6743438232832307,0.0026645197387140628,-0.005099426106052657
0.1984163781214182,0.298258031150545,-0.674364344528065,0.002531371750406502,-0.004830032391681352
0.2025500526656174,0.298268223039031,-0.674383760167442,0.00240009139503735,-0.004564499882012532
0.20668372720981368,0.2982778761173474,-0.6744020861623251,0.0022706786726065346,-0.0043028285770463776
0.21081740175400995,0.2982869981056806,-0.674419338473677,0.002143133583114184,-0.004045018476782451
0.21495107629820917,0.29829559672421757,-0.6744355330624625,0.00201745612656027,-0.003791069581221454
0.21908475084240253,0.29830367969314503,-0.6744506858896449,0.001893646302944859,-0.003540981890363004
0.2232184253865988,0.29831125473264963,-0.6744648129161873,0.0017717041122678016,-0.0032947554042069976
0.22735209993079508,0.29831832956291804,-0.6744779301030533,0.0016516295545293477,-0.003052390122753712
0.2314857744749943,0.2983249119041372,-0.6744900534112072,0.0015334226297291434,-0.0028138860460028697
0.2356194490191876,0.29833100947649355,-0.6745011988016119,0.0014170833378673448,-0.0025792431739547067
0.23975312356338388,0.29833663000017424,-0.6745113822352312,0.001302611678944035,-0.0023484615066090148
0.24388679810758015,0.29834178119536564,-0.6745206196730288,0.0011900076529592768,-0.0021215410439658494
0.24802047265177646,0.29834647078225457,-0.6745289270759681,0.0010792712599128618,-0.0018984817860254327
0.25215414719597273,0.298350706481028,-0.6745363204050131,0.0009704024998047345,-0.0016792837327874455
0.25628782174016895,0.2983544960118724,-0.6745428156211268,0.0008634013726353112,-0.0014639468842521652
0.26042149628436523,0.2983578470949746,-0.6745484286852732,0.0007582678784041896,-0.0012524712404192173
0.2645551708285615,0.29836076745052126,-0.6745531755584159,0.0006550020171114668,-0.001044856801289143
0.26868884537275783,0.2983632647986991,-0.6745570722015182,0.0005536037887571565,-0.0008411035668615258
0.2728225199169541,0.2983653468596952,-0.6745601345755439,0.00045407319334132834,-0.0006412115371363797
0.2769561944611504,0.2983670213536958,-0.6745623786414562,0.0003564102308638989,-0.0004451807121138851
0.28108986900534955,0.2983682960008878,-0.6745638203602192,0.0002606149013248682,-0.00025301109179395875
0.2852235435495429,0.2983691785214582,-0.6745644756927965,0.00016668720472441667,-6.470267617673942e-05
0.28935721809373915,0.29836967663559355,-0.6745643606001516,7.462714106234308e-05,0.00011974453473782842
0.29349089263793543,0.2983697980634806,-0.6745634910432479,-1.5565289661338688e-05,0.00030033054095007783
0.2976245671821317,0.2983695505253058,-0.6745618829830489,-0.00010389008744662864,0.00047705534245984227
0.30175824172632804,0.2983689417412563,-0.6745595523805183,-0.00019034725229344351,0.0006499189392668858
0.3058919162705243,0.29836797943151866,-0.67455651519662,-0.0002749367842017694,0.0008189213313713473
0.31002559081472053,0.29836667131627964,-0.674552787392317,-0.00035765868317174515,0.0009840625187733654
0.3141592653589168,0.298365025115726,-0.6745483849285735,-0.0004385129492032666,0.0011453425014725238
0.3182929399031131,0.29836304855004436,-0.674543323766353,-0.0005174995822963546,0.0013027612794692944
0.32242661444730936,0.29836074933942164,-0.6745376198666185,-0.0005946185824510092,0.0014563188527635385
0.32656028899150563,0.2983581352040444,-0.6745312891903342,-0.0006698699496672511,0.001606015221355117
0.3306939635357019,0.2983552138640994,-0.6745243476984635,-0.0007432536839450388,0.001751850385244197
0.33482763807989824,0.29835199303977356,-0.6745168113519701,-0.0008147697852843583,0.0018938243444305836
0.33896131262409446,0.29834848045125345,-0.6745086961118174,-0.0008844182536853346,0.002031937098914638
0.34309498716829073,0.2983446838187258,-0.6745000179389689,-0.0009521990891478427,0.0021661886486960547
0.34722866171248995,0.2983406108623774,-0.6744907927943884,-0.001018112291671952,0.002296578993774695
0.3513623362566833,0.2983362693023949,-0.6744810366390394,-0.0010821578612574961,0.002423108134150892
0.35549601080087956,0.29833166685896517,-0.6744707654338856,-0.001144335797904697,0.002545776069824257
0.35962968534507583,0.2983268112522749,-0.6744599951398905,-0.0012046461016134435,0.002664582800795484
0.36376335988927505,0.2983217102025108,-0.6744487417180178,-0.0012630887723839163,0.002779528327063907
0.3678970344334684,0.2983163714298594,-0.6744370211292305,-0.0013196638102156572,0.0028906126486298034
0.37203070897766466,0.29831080265450793,-0.6744248493344932,-0.0013743712151091658,0.0029978357654930343
0.37616438352186093,0.2983050115966428,-0.6744122422947689,-0.0014272109870642202,0.003101197677653683
0.3802980580660572,0.2982990059764507,-0.6743992159710213,-0.001478183126080751,0.003200698385112055
0.3844317326102535,0.29829279351411847,-0.6743857863242138,-0.001527287632158994,0.00329633788786754
0.38856540715444976,0.29828638192983276,-0.67437196931531,-0.0015745245052987827,0.003388116185920609
0.39269908169864604,0.29827977894378055,-0.6743577809052741,-0.0016198937455001172,0.0034760332792711235
0.3968327562428423,0.29827299227614823,-0.6743432370550687,-0.0016633953527629003,0.0035600891679190283
0.4009664307870386,0.2982660296471228,-0.6743283537256581,-0.0017050293270873401,0.0036402838518642955
0.4051001053312348,0.29825889877689077,-0.6743131468780057,-0.0017447956684733812,0.0037166173311068973
0.40923377987543114,0.2982516073856392,-0.6742976324730753,-0.0017826943769209264,0.0037890896056470835
0.41336745441963035,0.29824416319355446,-0.6742818264718297,-0.0018187254524301005,0.003857700675484771
0.4175011289638237,0.29823657392082353,-0.6742657448352335,-0.0018528888950009176,0.003922450540619904
0.4216348035080199,0.2982288472876331,-0.6742494035242497,-0.0018851847046331277,0.003983339201052233
0.42576847805221624,0.2982209910141698,-0.6742328184998422,-0.0019156128813270085,0.004040366656782035
0.4299021525964125,0.29821301282062057,-0.6742160057229742,-0.0019441734250823933,0.0040935329078092275
0.43403582714060873,0.2982049204271719,-0.6741989811546096,-0.0019708663358993794,0.004142837954134171
0.43816950168480506,0.29819672155401067,-0.674181760755712,-0.0019956916137780084,0.0041882817957561436
0.4423031762290013,0.29818842392132355,-0.6741643604872448,-0.002018649258718086,0.004229864432675701
0.4464368507731976,0.2981800352492974,-0.6741467963101716,-0.0020397392707197787,0.004267585864892565
0.45057052531739383,0.2981715632581189,-0.6741290841854563,-0.0020589616497830865,0.004301446092407402
0.45470419986159016,0.29816301566797465,-0.6741112400740621,-0.0020763163959079123,0.00433144511521899
0.45883787440578644,0.2981544001990515,-0.6740932799369527,-0.0020918035090943254,0.0043575829333283855
0.46297154894998266,0.29814572457153615,-0.6740752197350919,-0.0021054229893423537,0.004379859546735032
0.467105223494179,0.29813699650561537,-0.6740570754294429,-0.0021171748366518583,0.0043982749554392075
0.4712388980383752,0.29812822372147596,-0.6740388629809694,-0.002127059051022895,0.004412829159440801
0.47537257258257154,0.2981194139393046,-0.6740205983506358,-0.0021350756324556297,0.004423522158739923
0.47950624712677076,0.29811057487928794,-0.6740022974994042,-0.0021412245809498964,0.004430353953336019
0.4836399216709641,0.2981017142616128,-0.6739839763882394,-0.0021455058965056395,0.004433324543229811
0.4877735962151603,0.2980928398064659,-0.6739656509781043,-0.002147919579123081,0.004432433928421242
0.4919072707593566,0.29808395923403397,-0.6739473372299629,-0.0021484656288019988,0.0044276821089098695
0.4960409453035558,0.2980750802645037,-0.6739290511047787,-0.002147144045542504,0.004419069084696081
0.5001746198477491,0.298066210618062,-0.6739108085635155,-0.0021439548293445965,0.004406594855779655
0.5043082943919455,0.2980573580148954,-0.6738926255671364,-0.0021388979802082764,0.004390259422160536
0.5084419689361417,0.2980485301751908,-0.673874518076605,-0.002131973498133488,0.004370062783839279
0.5125756434803379,0.2980397348191347,-0.6738565020528853,-0.0021231813831202873,0.004346004940814829
0.5167093180245342,0.29803097966691405,-0.6738385934569406,-0.002112521635168646,0.0043180858930880195
0.5208429925687305,0.2980222724387156,-0.6738208082497346,-0.0020999942542785366,0.004286305640658794
0.5249766671129268,0.29801362085472594,-0.673803162392231,-0.0020855992404500423,0.00425066418352682
0.529110341657123,0.2980050326351319,-0.6737856718453931,-0.0020693365936830244,0.004211161521692375
0.5332440162013193,0.29799651550012013,-0.6737683525701847,-0.002051206313977705,0.0041677976551552365
0.5373776907455157,0.29798807716987746,-0.6737512205275694,-0.0020312084013338616,0.004120572583915683
0.5415113652897119,0.29797972536459066,-0.6737342916785106,-0.0020093428557516613,0.0040694863079733246
0.5456450398339082,0.2979714678044463,-0.673717581983972,-0.001985609677230993,0.004014538827328884
0.5497787143781044,0.29796331220963124,-0.6737011074049175,-0.0019600088657719117,0.003955730141981639
0.5539123889223008,0.2979552663003322,-0.67368488390231,-0.0019325404213743624,0.0038930602519315904
0.558046063466497,0.2979473377967359,-0.6736689274371137,-0.0019032043440383728,0.0038265291571791815
0.5621797380106933,0.29793953441902904,-0.6736532539702919,-0.0018720006337639983,0.003756136857724024
0.5663134125548895,0.2979318638873984,-0.6736378794628083,-0.0018389292905512111,0.0036818833535663953
0.5704470870990858,0.2979243339220307,-0.6736228198756262,-0.0018039903143999003,0.0036037686447062955
0.5745807616432821,0.29791695224311276,-0.67360809116971,-0.0017671837053102324,0.0035217927311435027
0.5787144361874783,0.2979097265708313,-0.6735937093060225,-0.001728509463282124,0.0034359556128784052
0.5828481107316746,0.29790266462537285,-0.6735796902455272,-0.0016879675883155754,0.0033462572899102816
0.5869817852758709,0.2978957741269243,-0.6735660499491882,-0.001645558080410614,0.003252697762239909
0.5911154598200672,0.29788906279567245,-0.6735528043779689,-0.0016012809395671568,0.003155277029866843
0.5952491343642634,0.2978825383518039,-0.6735399694928329,-0.0015551361657853147,0.003053995092791195
0.5993828089084597,0.2978762085155055,-0.6735275612547439,-0.00150712375906506,0.0029488519510130207
0.6035164834526561,0.2978700810069639,-0.673515595624665,-0.0014572437194063925,0.002839847604532153
0.6076501579968523,0.2978641635463659,-0.6735040885635606,-0.0014054960468092015,0.0027269820533487588
0.6117838325410486,0.2978584638538982,-0.6734930560323936,-0.0013518807412735978,0.002610255297462949
0.6159175070852448,0.29785298964974743,-0.6734825139921277,-0.0012963978027995537,0.0024896673368742794
0.6200511816294411,0.2978477486541005,-0.6734724784037267,-0.0012390472313871526,0.0023652181715833054
0.6241848561736374,0.2978427485871441,-0.6734629652281542,-0.0011798290270362555,0.0022369078015896937
0.6283185307178336,0.297837997169065,-0.6734539904263737,-0.0011187431897470013,0.0021047362268936665
0.6324522052620299,0.29783350212004983,-0.6734455699593487,-0.0010557897195192512,0.0019687034474947795
0.6365858798062262,0.2978292711602854,-0.6734377197880428,-0.0009909686163530607,0.001828809463393477
0.6407195543504225,0.2978253120099584,-0.6734304558734199,-0.0009242798802484575,0.001685054274589426
0.6448532288946187,0.2978216323892555,-0.6734237941764432,-0.0008557235112053863,0.0015374378810828482
0.6489869034388149,0.2978182400183637,-0.6734177506580764,-0.0007852995092239579,0.0013859602828738549
0.6531205779830113,0.29781514261746944,-0.6734123412792832,-0.0007130078743041723,0.001230621479962224
0.6572542525272076,0.29781234790675964,-0.6734075820010272,-0.0006388486064458077,0.0010714214723480664
0.6613879270714038,0.2978098636064209,-0.6734034887842717,-0.0005628217056490303,0.0009083602600311602
0.6655216016156001,0.29780769743664004,-0.6734000775899807,-0.00048492717191372936,0.0007414378430118385
0.6696552761597965,0.2978058571176038,-0.6733973643791175,-0.0004051650052401823,0.0005706542212899901
0.6737889507039927,0.2978043503694989,-0.6733953651126459,-0.00032353520562811156,0.0003960093948652821
0.6779226252481889,0.29780318491251206,-0.673394095751529,-0.0002400377730776282,0.00021750336373838053
0.6820562997923852,0.29780236846683,-0.6733935722567308,-0.0001546727075887322,3.5136127908508286e-05
0.6861899743365815,0.29780190875263957,-0.6733938105892151,-6.744000916136805e-05,-0.0001510923126235575
0.6903236488807778,0.29780181349012735,-0.6733948267099451,2.1660322204464233e-05,-0.00034118195785848293
0.694457323424974,0.2978020903994802,-0.6733966365798845,0.00011262828650859813,-0.000535132807795935
0.6985909979691703,0.29780274720088473,-0.6733992561599971,0.00020546388375125568,-0.0007329448624356916
0.7027246725133666,0.2978037916145278,-0.673402701411246,0.00030016711393232587,-0.0009346181217783078
0.7068583470575628,0.2978052313605961,-0.6734069882945953,0.0003967379770518642,-0.0011401525858233397
0.7109920216017591,0.29780707415927626,-0.6734121327710083,0.0004951764731098152,-0.0013495482545710091
0.7151256961459553,0.29780932773075525,-0.6734181508014487,0.0005954826021061232,-0.0015628051280213162
0.7192593706901517,0.2978119997952195,-0.6734250583468799,0.0006976563640410105,-0.00177992320617415
0.723393045234348,0.297815098072856,-0.6734328713682658,0.0008016977589142549,-0.00200090248902951
0.7275267197785442,0.29781863028385147,-0.6734416058265699,0.0009076067867259119,-0.002225742976587508
0.7316603943227405,0.29782260414839246,-0.6734512776827555,0.001015383447475926,-0.0024544446688479216
0.7357940688669368,0.29782702738666583,-0.6734619028977864,0.0011250277411645193,-0.0026870075658109727
0.7399277434111331,0.2978319077188584,-0.6734734974326265,0.0012365396677914142,-0.0029234316674768834
0.7440614179553293,0.2978372528651567,-0.6734860772482387,0.0013499192273569438,-0.0031637169738450988
0.7481950924995256,0.29784307054574766,-0.6734996583055872,0.001465166419860664,-0.0034078634849157297
0.7523287670437219,0.2978493684808179,-0.6735142565656353,0.0015822812453029078,-0.0036558712006892202
0.7564624415879181,0.29785615439055413,-0.6735298879893468,0.0017012637036836753,-0.003907740121165126
0.7605961161321144,0.2978634359951432,-0.673546568537685,0.0018221137950027444,-0.00416347024634367
0.7647297906763106,0.2978712210147718,-0.6735643141716136,0.0019448315192603927,-0.0044230615762248515
0.768863465220507,0.29787951716962663,-0.6735831408520963,0.0020694168764563425,-0.0046865141108084485
0.7729971397647032,0.29788833217989447,-0.6736030645400966,0.0021958698665907606,-0.004953827850094794
0.7771308143088995,0.297897673765762,-0.673624101196578,0.0023241904896636467,-0.005225002794083555
0.7812644888530957,0.29790754964741606,-0.6736462667825044,0.00245437874567489,-0.005500038942775065
0.7853981633972921,0.29791796754504324,-0.6736695772588389,0.0025864346346246014,-0.0057789362961689905
0.7895318379414883,0.29792893075796795,-0.6736940391638134,0.00271714973094919,-0.006054856339102275
