Phase,Hip,Knee,dHip_dphi,dKnee_dphi
0.0,0.30067432288159773,-0.6787196089985942,-0.11498577807922672,0.2283969625928326
0.005635143773254113,0.30004034029208787,-0.6774615637251695,-0.11003433994307041,0.21812350184889126
0.011270287546508226,0.29943409315462766,-0.6762610614761455,-0.10514203560682694,0.20797404998715227
0.01690543131976234,0.2988552482417524,-0.6751174034436423,-0.10030886507049622,0.19794860700761518
0.022540575093016452,0.29830347232599774,-0.6740298908197788,-0.09553482833407825,0.18804717291027956
0.028175718866270565,0.2977784321798996,-0.6729978247966755,-0.09081992539757276,0.17826974769514584
0.03381086263952468,0.2972797945759933,-0.6720205065664512,-0.08616415626098002,0.16861633136221357
0.03944600641277879,0.2968072262868145,-0.6710972373212257,-0.08156752092430014,0.15908692391148416
0.045081150186032905,0.29636039408489917,-0.6702273182531192,-0.07703001938753275,0.14968152534295565
0.05071629395928702,0.29593896474278253,-0.6694100505542506,-0.07255165165067787,0.1404001356566295
0.05635143773254113,0.29554260503300045,-0.6686447354167399,-0.068132417713736,0.13124275485250494
0.061986581505795245,0.2951709817280885,-0.6679306740327069,-0.06377231757670657,0.12220938293058256
0.06762172527904936,0.29482376160058216,-0.6672671675942708,-0.059471351239589895,0.11330001989086172
0.07325686905230347,0.2945006114230174,-0.6666535172935516,-0.05522951870238586,0.10451466573334256
0.07889201282555758,0.29420119796792965,-0.6660890243226688,-0.051046819965094685,0.09585332045802555
0.08452715659881169,0.2939251880078545,-0.665572989873742,-0.046923255027716014,0.0873159840649109
0.09016230037206581,0.2936722483153276,-0.6651047151388907,-0.04285882389025015,0.0789026565539976
0.09579744414531992,0.2934420456628848,-0.6646835013102349,-0.03885352655269678,0.07061333792528572
0.10143258791857404,0.29323424682306154,-0.6643086495798942,-0.034907363015056245,0.062448028178776205
0.10706773169182815,0.29304851856839326,-0.6639794611399876,-0.0310203332773284,0.05440672731446844
0.11270287546508226,0.292884527671416,-0.6636952371826353,-0.027192437339513223,0.0464894353323627
0.11833801923833638,0.2927419409046651,-0.6634552788999568,-0.023423675201610577,0.03869615223245866
0.12397316301159049,0.29262042504067637,-0.6632588874840719,-0.019714046863620736,0.031026878014756475
0.1296083067848446,0.29251964685198534,-0.6631053641271001,-0.016063552325543552,0.023481612679256032
0.13524345055809872,0.2924392731111277,-0.662994010021161,-0.012472191587379099,0.01606035622595746
0.1408785943313528,0.29237897059063894,-0.6629241263583738,-0.008939964649127259,0.008763108654860869
0.14651373810460694,0.2923384060630549,-0.6628950143308592,-0.005466871510788051,0.0015898699659661238
0.15214888187786105,0.2923172463009112,-0.662905975130736,-0.0020529121723615908,-0.005459359840726874
0.15778402565111516,0.29231515807674324,-0.6629563099501239,0.0013019133661522249,-0.012384580765217888
0.16341916942436926,0.29233180816308685,-0.6630453199811427,0.0045976051047532905,-0.01918579280750704
0.16905431319762337,0.2923668633324776,-0.663172306415912,0.00783416304344178,-0.02586299596759456
0.1746894569708775,0.29241999035745125,-0.6633365704465517,0.011011587182217519,-0.03241619024547989
0.18032460074413162,0.29249085601054325,-0.6635374132651809,0.014129877521080563,-0.03884537564116369
0.18595974451738573,0.29257912706428923,-0.6637741360639194,0.017189034060030972,-0.04515055215464552
0.19159488829063984,0.292684470291225,-0.6640460400348871,0.02018905679906873,-0.051331719785925475
0.19723003206389397,0.2928065524638861,-0.6643524263702036,0.023129945738193807,-0.05738887853500359
0.20286517583714808,0.29294504035480823,-0.6646925962619884,0.02601170087740613,-0.06332202840187984
0.2085003196104022,0.2930996007365268,-0.6650658509023608,0.028834322216705816,-0.069131169386554
0.2141354633836563,0.29326990038157763,-0.6654714914834409,0.03159780975609275,-0.07481630148902652
0.2197706071569104,0.2934556060624963,-0.6659088191973481,0.0343021634955671,-0.08037742470929728
0.22540575093016452,0.29365638455181853,-0.6663771352362022,0.03694738343512865,-0.08581453904736608
0.23104089470341863,0.2938719026220799,-0.6668757407921231,0.039533469574777776,-0.09112764450323313
0.23667603847667276,0.294101827045816,-0.6674039370572297,0.04206042191451394,-0.09631674107689821
0.24231118224992687,0.2943458245955625,-0.6679610252236421,0.04452824045433763,-0.10138182876836133
0.24794632602318098,0.29460356204385496,-0.6685463064834798,0.046936925194248504,-0.10632290757762289
0.2535814697964351,0.2948747061632291,-0.6691590820288625,0.049286476134246866,-0.1111399775046824
0.2592166135696892,0.29515892372622066,-0.6697986530519101,0.05157689327433231,-0.11583303854954005
0.2648517573429433,0.295455881505365,-0.6704643207447416,0.05380817661450526,-0.12040209071219589
0.27048690111619744,0.29576524627319795,-0.671155386299477,0.05598032615476544,-0.12484713399264996
0.2761220448894515,0.29608668480225503,-0.671871150908236,0.058093341895112956,-0.12916816839090223
0.2817571886627056,0.296419863865072,-0.6726109157631383,0.06014722383554783,-0.1333651939069525
0.2873923324359598,0.2967644502341844,-0.6733739820563032,0.06214197197607004,-0.13743821054080085
0.2930274762092139,0.2971201106821279,-0.6741596509798504,0.06407758631667954,-0.14138721829244755
0.298662619982468,0.29748651198143805,-0.6749672237258997,0.06595406685737629,-0.14521221716189217
0.3042977637557221,0.29786332090465073,-0.6757960014865708,0.06777141359816051,-0.14891320714913503
0.30993290752897623,0.2982502042243013,-0.6766452854539833,0.06952962653903186,-0.152490188254176
0.3155680513022303,0.29864682871292547,-0.6775143768202564,0.07122870567999069,-0.15594316047701515
0.32120319507548445,0.29905286114305896,-0.6784025767775104,0.07286865102103679,-0.15927212381765254
0.32683833884873853,0.2994679682872372,-0.6793091865178643,0.07444946256217021,-0.16247707827608793
0.33247348262199267,0.2998918169179961,-0.6802335072334382,0.07597114030339093,-0.16555802385232155
0.33810862639524675,0.3003240738078711,-0.6811748401163514,0.07743368424469892,-0.1685149605463533
0.3437437701685009,0.300764405729398,-0.6821324863587239,0.07883709438609442,-0.17134788835818318
0.349378913941755,0.3012124794551122,-0.6831057471526751,0.08018137072757707,-0.17405680728781134
0.3550140577150091,0.3016679617575494,-0.6840939236903245,0.08146651326914722,-0.17664171733523756
0.36064920148826324,0.3021305194092455,-0.6850963171637923,0.0826925220108045,-0.17910261850046183
0.3662843452615173,0.3025998191827357,-0.6861122287651973,0.08385939695254914,-0.18143951078348422
0.37191948903477146,0.303075527850556,-0.6871409596866598,0.08496713809438117,-0.18365239418430498
0.37755463280802554,0.30355731218524185,-0.688181811120299,0.08601574543630051,-0.18574126870292385
0.3831897765812797,0.30404483895932893,-0.6892340842582348,0.08700521897830713,-0.18770613433934064
0.38882492035453375,0.3045377749453529,-0.6902970802925867,0.08793555872040104,-0.1895469910935557
0.39446006412778795,0.3050357869158492,-0.6913701004154745,0.08880676466258235,-0.19126383896556892
0.40009520790104197,0.3055385416433537,-0.6924524458190175,0.08961883680485087,-0.19285667795538025
0.40573035167429616,0.306045705900402,-0.6935434176953357,0.09037177514720689,-0.19432550806298984
0.4113654954475502,0.3065569464595297,-0.6946423172365487,0.09106557968965007,-0.19567032928839742
0.4170006392208044,0.3070719300932724,-0.695748445634776,0.09170025043218066,-0.19689114163160334
0.4226357829940585,0.30759032357416577,-0.6968611040821371,0.09227578737479854,-0.19798794509260725
0.4282709267673126,0.30811179367474534,-0.6979795937707517,0.09279219051750376,-0.19896073967140948
0.43390607054056674,0.3086360071675469,-0.6991032158927397,0.09324945986029626,-0.19980952536800956
0.4395412143138208,0.309162630825106,-0.7002312716402204,0.09364759540317602,-0.20053430218240792
0.44517635808707495,0.30969133141995836,-0.7013630622053137,0.09398659714614326,-0.20113507011460457
0.45081150186032903,0.3102217757246394,-0.702497888780139,0.09426646508919775,-0.2016118291645992
0.45644664563358317,0.310753630511685,-0.703635052556816,0.0944871992323395,-0.20196457933239187
0.46208178940683725,0.31128656255363063,-0.7047738547274646,0.09464879957556868,-0.20219332061798312
0.4677169331800914,0.311820238623012,-0.7059135964842039,0.09475126611888512,-0.2022980530213721
0.4733520769533455,0.3123543254923647,-0.707053579019154,0.09479459886228886,-0.20227877654255927
0.4789872207265996,0.31288848993422447,-0.7081931035244342,0.09477879780577991,-0.20213549118154467
0.48462236449985374,0.3134223987211268,-0.7093314711921644,0.09470386294935837,-0.20186819693832836
0.4902575082731078,0.3139557186256074,-0.7104679832144644,0.09456979429302406,-0.20147689381290995
0.49589265204636196,0.31448811642020186,-0.7116019407834531,0.09437659183677718,-0.20096158180529
0.501527795819616,0.3150192588774458,-0.7127326450912509,0.09412425558061754,-0.20032226091546795
0.5071629395928702,0.31554881276987495,-0.713859397329977,0.09381278552454522,-0.19955893114344397
0.5127980833661242,0.3160764448700249,-0.7149814986917511,0.09344218166856016,-0.19867159248921823
0.5184332271393784,0.31660182195043124,-0.716098250368693,0.09301244401266248,-0.19766024495279078
0.5240683709126326,0.3171246107836297,-0.7172089535529224,0.09252357255685223,-0.19652488853416133
0.5297035146858866,0.31764447814215574,-0.7183129094365585,0.09197556730112919,-0.19526552323333007
0.5353386584591407,0.31816109079854515,-0.7194094192117213,0.09136842824549349,-0.19388214905029694
0.5409738022323989,0.31867411552533387,-0.720497784070531,0.09070215538994461,-0.19237476598506087
0.546608946005649,0.3191832190950564,-0.7215773052051051,0.08997674873448402,-0.1907433740376251
0.552244089778903,0.31968806828024965,-0.7226472838075653,0.08919220827911031,-0.1889879732079865
0.5578792335521572,0.3201883298534486,-0.7237070210700306,0.08834853402382392,-0.1871085634961458
0.5635143773254112,0.3206836705871891,-0.7247558181846208,0.08744572596862485,-0.18510514490210356
0.5691495210986655,0.32117375725400676,-0.7257929763434552,0.08648378411351298,-0.18297771742585928
0.5747846648719196,0.3216582566264371,-0.7268177967386539,0.08546270845848855,-0.18072628106741312
0.5804198086451736,0.32213683547701577,-0.7278295805623359,0.08438249900355138,-0.1783508358267651
0.5860549524184278,0.3226091605782786,-0.7288276290066213,0.08324315574870164,-0.1758513817039155
0.5916900961916819,0.32307489870276107,-0.7298112432636298,0.08204467869393917,-0.17322791869886378
0.597325239964936,0.3235337166229987,-0.7307797245254807,0.08078706783926393,-0.17048044681161023
0.60296038373819,0.3239852811115274,-0.7317323739842939,0.07947032318467614,-0.16760896604215503
0.6085955275114442,0.3244292589408825,-0.7326684928321885,0.0780944447301756,-0.16461347639049762
0.6142306712846983,0.3248653168835999,-0.7335873822612848,0.07665943247576243,-0.1614939778566386
0.6198658150579525,0.325293121712215,-0.7344883434637021,0.0751652864214365,-0.15825047044057766
0.6255009588312065,0.32571234019926365,-0.7353706776315602,0.07361200656719802,-0.15488295414231495
0.6311361026044646,0.32612263911728157,-0.7362336859569791,0.0719995929130455,-0.15139142896184776
0.6367712463777148,0.32652368523880376,-0.737076669632077,0.07032804545898283,-0.1477758948991838
0.6424063901509689,0.32691514533636656,-0.7378989298489749,0.06859736420500617,-0.1440363519543153
0.648041533924223,0.32729668618250524,-0.738699767799792,0.06680754915111681,-0.14017280012724503
0.6536766776974811,0.32766797454975594,-0.7394784846766486,0.0649586002973136,-0.13618523941797017
0.6593118214707312,0.32802867721065326,-0.7402343816716626,0.06305051764360028,-0.1320736698264992
0.6649469652439853,0.32837846093773376,-0.7409667599769552,0.06108330118997293,-0.12783809135282342
0.6705821090172395,0.32871699250353276,-0.7416749207846455,0.059056950936432956,-0.12347850399694582
0.6762172527904935,0.32904393868058596,-0.7423581652868533,0.05697146688298027,-0.11899490775886634
0.6818523965637476,0.3293589662414289,-0.743015794675698,0.05482684902961499,-0.1143873026385851
0.6874875403370018,0.32966174195859727,-0.7436471101432995,0.052623097376336914,-0.10965568863610209
0.6931226841102559,0.3299519326046267,-0.7442514128817771,0.05036021192314616,-0.10480006575141687
0.69875782788351,0.33022920495205277,-0.7448280040832508,0.04803819267004272,-0.09982043398452989
0.7043929716567641,0.3304932257734111,-0.7453761849398399,0.04565703961702677,-0.09471679333544125
0.7100281154300182,0.3307436618412375,-0.7458952566436643,0.04321675276409803,-0.08948914380415063
0.7156632592032723,0.3309801799280674,-0.7463845203868433,0.0407173321112565,-0.08413748539065813
0.7212984029765305,0.33120244680643673,-0.7468432773614974,0.038158777658500564,-0.07866181809495998
0.7269335467497805,0.3314101292488806,-0.7472708287597447,0.035541089405835724,-0.07306214191706795
0.7325686905230346,0.331602894027935,-0.747666475773706,0.03286426735325626,-0.06733845685696982
0.7382038342962889,0.33178040791613567,-0.7480295195955009,0.03012831150076395,-0.061490762914669816
0.7438389780695429,0.331942337686018,-0.7483592614172484,0.027333221848359235,-0.05551906009016816
0.749474121842797,0.3320883501101176,-0.7486550024310685,0.024478998396041673,-0.049423348383464516
0.7551092656160511,0.3322181119609704,-0.7489160438290812,0.021565641143811543,-0.04320362779455933
0.7607444093893053,0.3323312900111117,-0.7491416868034055,0.01859315009166862,-0.036859898323451934
0.7663795531625593,0.3324275510330774,-0.7493312325461614,0.015561525239613183,-0.030392159970142774
0.7720146969358135,0.33250656179940297,-0.7494839822494683,0.0124707665876449,-0.02380041273463185
0.7776498407090675,0.3325679890826242,-0.7495992371054463,0.00932087413576399,-0.017084656616919047
0.7832849844823218,0.3326114996552765,-0.7496762983062144,0.0061118478839704005,-0.01024489161700426
0.7889201282555759,0.33263678647926376,-0.7497145241114234,0.0028659958641834974,-0.0033297277011022316
0.7945552720288299,0.3326438980633518,-0.7497140475295236,-0.000332803723571474,0.00347806165780227
0.8001904158020839,0.33263313915308496,-0.7496755599176887,-0.003476519987801752,0.010160976871868154
0.8058255595753382,0.33260482015091075,-0.7495997649596778,-0.00656515292850737,0.016719017941095482
0.8114607033485963,0.3325592514592764,-0.7494873663392504,-0.009598702545690261,0.023152184865488087
0.8170958471218464,0.3324967434806299,-0.749339067740167,-0.012577168839344151,0.029460477645033213
0.8227309908951004,0.33241760661741854,-0.7491555728461868,-0.015500551809475478,0.03564389627974394
0.8283661346683546,0.3323221512720901,-0.7489375853410697,-0.018368851456082178,0.04170244076961595
0.8340012784416128,0.33221068784709185,-0.7486858089085751,-0.021182067779166085,0.04763611111465363
0.8396364222148628,0.33208352674487185,-0.7484009472324633,-0.02394020077872116,0.053444907314844005
0.845271565988117,0.33194097836787717,-0.7480837039964938,-0.02664325045475375,0.0591288293702001
0.8509067097613711,0.3317833531185556,-0.747734782884426,-0.029291216807261433,0.06468787728071727
0.8565418535346252,0.33161096139935475,-0.7473548875800201,-0.03188409983624438,0.07012205104639539
0.8621769973078792,0.3314241136127221,-0.7469447217670355,-0.03442189954170261,0.07543135066723489
0.8678121410811335,0.3312231201611052,-0.746504989129232,-0.03690461592363617,0.08061577614323587
0.8734472848543875,0.33100829144695176,-0.7460363933503695,-0.03933224898204479,0.08567532747439777
0.8790824286276416,0.3307799378727093,-0.7455396381142076,-0.04170479871692894,0.09061000466072128
0.8847175724008957,0.3305383698408253,-0.7450154271045061,-0.04402226512828828,0.09541980770220582
0.8903527161741499,0.3302838977537474,-0.7444644640050244,-0.04628464821612287,0.1001047365988516
0.8959878599474039,0.3300168320139232,-0.7438874524995228,-0.04849194798043259,0.10466479135065856
0.9016230037206621,0.32973748302379985,-0.7432850962717599,-0.05064416442121931,0.10909997195763003
0.9072581474939123,0.32944616118582587,-0.7426580990054975,-0.05274129753847832,0.11341027841975675
0.9128932912671663,0.32914317690244804,-0.7420071643844934,-0.0547833473322139,0.11759571073704742
0.9185284350404204,0.3288288405761141,-0.7413329960925082,-0.056770313802424775,0.12165626890949932
0.9241635788136745,0.3285034626092717,-0.7406362978133014,-0.05870219694911106,0.1255919529371129
0.9297987225869287,0.3281673534043685,-0.7399177732306329,-0.06057899677227245,0.12940276281988744
0.9354338663601828,0.32782082336385177,-0.7391781260282618,-0.06240071327190919,0.13308869855782318
0.9410690101334368,0.32746418289016926,-0.7384180598899488,-0.06416734644802118,0.13664976015092004
0.946704153906691,0.3270977423857686,-0.7376382784994528,-0.06587889630060847,0.14008594759917847
0.9523392976799451,0.3267218122530974,-0.7368394855405341,-0.06753536282967101,0.14339726090259788
0.9579744414531992,0.32633670289460304,-0.7360223846969524,-0.06913674603520878,0.1465837000611787
0.9636095852264532,0.32594272471273317,-0.7351876796524668,-0.07068304591722181,0.14964526507492074
0.9692447289997075,0.3255401881099354,-0.7343360740908378,-0.07217426247571022,0.15258195594382415
0.9748798727729615,0.3251294034886572,-0.7334682716958243,-0.07361039571067376,0.15539377266788865
0.9805150165462156,0.32471068125134644,-0.732584976151187,-0.07499144562211263,0.1580807152471145
0.9861501603194697,0.32428433180045024,-0.731686891140685,-0.07631741221002676,0.1606427836815014
0.9917853040927239,0.32385066553841657,-0.7307747203480783,-0.07758829547441627,0.16307997797104973
0.9974204478659779,0.3234099928676927,-0.7298491674571262,-0.07880409541528084,0.16539229811575934
1.003055591639232,0.32296262419072636,-0.728910936151589,-0.07996481203262103,0.16757974411563026
1.0086907354124863,0.322508869909965,-0.7279607301152261,-0.08107044532643619,0.1696423159706621
1.0143258791857404,0.3220490404278565,-0.7269992530317974,-0.08212099529672663,0.17158001368085546
1.0199610229589944,0.321583446146848,-0.7260272085850623,-0.08311646194349231,0.1733928372462098
1.0255961667322484,0.3211123974693874,-0.7250453004587808,-0.08405684526673335,0.17508078666672572
1.0312313105055027,0.32063620479792215,-0.7240542323367126,-0.08494214526644961,0.17664386194240256
1.036866454278757,0.32015517853489983,-0.7230547079026176,-0.08577236194264135,0.17808206307324098
1.042501598052011,0.31966962908276786,-0.7220474308402551,-0.08654749529530811,0.17939539005924032
1.0481367418252652,0.3191798668439741,-0.7210331048333851,-0.08726754532445027,0.18058384290040147
1.0537718855985192,0.31868620222096594,-0.7200124335657673,-0.08793251203006758,0.18164742159672315
1.0594070293717732,0.318188945616191,-0.7189861207211615,-0.08854239541216016,0.18258612614820652
1.0650421731450272,0.31768840743209675,-0.7179548699833274,-0.08909719547072811,0.18339995655485092
1.0706773169182815,0.3171848980711309,-0.7169193850360244,-0.08959691220577137,0.18408891281665685
1.0763124606915355,0.31667872793574103,-0.7158803695630127,-0.09004154561728972,0.18465299493362364
1.0819476044647898,0.31617020742837454,-0.7148385272480519,-0.09043109570528346,0.18509220290575185
1.0875827482380438,0.3156596469514792,-0.7137945617749015,-0.0907655624697524,0.18540653673304142
1.093217892011298,0.31514735690750245,-0.7127491768273214,-0.09104494591069673,0.1855959964154924
1.098853035784552,0.31463364769889185,-0.7117030760890716,-0.0912692460281162,0.18566058195310442
1.104488179557806,0.314118829728095,-0.7106569632439111,-0.09143846282201104,0.18560029334587747
1.1101233233310603,0.3136032133975596,-0.7096115419756003,-0.09155259629238108,0.18541513059381187
