Phase,Hip,Knee
0.0,0.313081788229559,-0.7084562940810202
0.005790954200164365,0.3102356765495421,-0.7019150289271968
0.01158190840032873,0.3081934577047636,-0.6972180231721972
0.017372862600493096,0.3070193520763117,-0.6945133018574987
0.02316381680065746,0.30657353863906545,-0.6934816410244746
0.028954771000821826,0.30657583983097364,-0.6934817788997911
0.03474572520098619,0.3067071697264565,-0.6937821944858795
0.040536679401150556,0.30671099479085406,-0.6937933671657022
0.04632763360131492,0.3064600663221144,-0.6932211140255244
0.05211858780147929,0.3059692915436488,-0.6920970300148317
0.05790954200164365,0.3053570717444067,-0.6906909465269351
0.06370049620180802,0.3047761418289968,-0.6893531001431747
0.06949145040197238,0.3043439253635689,-0.6883544453326624
0.07528240460213675,0.3040990049942588,-0.6877860668856635
0.08107335880230111,0.3039969214471856,-0.6875483327990104
0.08686431300246547,0.30394135043143955,-0.6874212946575081
0.09265526720262984,0.30383297013752975,-0.6871762972402815
0.0984462214027942,0.3036132396040476,-0.6866767825223075
0.10423717560295857,0.30328510860455077,-0.6859268700146882
0.11002812980312293,0.30290444520567195,-0.6850529497580589
0.1158190840032873,0.3025491330169489,-0.6842336339742692
0.12161003820345168,0.3022816846924713,-0.6836140141082032
0.12740099240361605,0.30212245594011067,-0.68324340209748
0.1331919466037804,0.302044280427604,-0.6830617657936331
0.13898290080394476,0.3019889359488923,-0.6829364027780506
0.14477385500410914,0.3018961673388122,-0.6827281050098442
0.1505648092042735,0.30173120299370093,-0.6823547526107573
0.15635576340443785,0.30149852247049946,-0.6818240262882787
0.16214671760460223,0.30123674874526984,-0.6812229353834685
0.1679376718047666,0.30099840045768755,-0.6806721316398439
0.17372862600493094,0.30082477844456845,-0.6802682116083185
0.1795195802050953,0.30072772293537087,-0.6800409733377435
0.18531053440525969,0.30068605732739584,-0.6799439877728706
0.19110148860542406,0.30065735177129405,-0.6798805490804294
0.1968924428055884,0.3005986410928577,-0.6797508995148985
0.20268339700575277,0.30048606412022055,-0.679497858035548
0.20847435120591715,0.30032450867105276,-0.6791301219810418
0.2142653054060815,0.30014345348103794,-0.6787139380006012
0.22005625960624586,0.2999817402855509,-0.6783388299883402
0.22584721380641024,0.2998689253983196,-0.678074614053639
0.2316381680065746,0.2998119988151028,-0.67793996004751
0.23742912220673898,0.29979330574491236,-0.6778963536356102
0.24322007640690335,0.29978003012478016,-0.6778688954024881
0.2490110306070677,0.29974024374698005,-0.6777829352910624
0.2548019848072321,0.29965774209482343,-0.6775987845473337
0.26059293900739644,0.2995388320966047,-0.6773284986136965
0.2663838932075608,0.2994082941307628,-0.6770277750354284
0.2721748474077252,0.2992968939503722,-0.6767678571853835
0.2779658016078854,0.2992266398720867,-0.6766013910455486
0.28375675580805393,0.29920075946164637,-0.6765383903912312
0.2895477100082183,0.29920287843090454,-0.6765430957862543
0.2953386642083827,0.2992054139136714,-0.6765523609079523
0.3011296184085511,0.2991828985168602,-0.6765061570968038
0.30692057260871136,0.2991238172895013,-0.6763755021046736
0.3127115268088757,0.29903547474243675,-0.6761748615712099
0.31850248100904005,0.2989398632926945,-0.675953773804978
0.32429343520920856,0.29886277941084743,-0.6757723201201291
0.3300843894093688,0.29882151109731603,-0.6756724428981019
0.3358753436095332,0.29881690940612354,-0.6756586569179412
0.34166629780969754,0.2988334177345227,-0.6756968825813436
0.3474572520098619,0.29884679887627125,-0.6757313987631238
0.3532482062100263,0.29883570929135395,-0.6757114538674922
0.3590391604101906,0.29879158830881164,-0.6756148145711445
0.364830114610355,0.29872228180958144,-0.6754573285755349
0.37062106881051937,0.29864788167017303,-0.6752844153122756
0.37641202301068377,0.29859094358684923,-0.6751489475621539
0.3822029772108481,0.2985658122260487,-0.6750862178168667
0.38799393141101246,0.2985720693295857,-0.6750977586012823
0.39378488561118097,0.2985950582412431,-0.6751513459743981
0.3995758398113412,0.2986130544341831,-0.6751967764625038
0.40536679401150555,0.29860756037440084,-0.675189661931941
0.41115774821166995,0.29857183802349857,-0.6751119456983525
0.4169487024118343,0.29851374351293647,-0.6749796574852232
0.4227396566119987,0.298451690502214,-0.6748346120851678
0.428530610812163,0.29840580523155746,-0.6747243228696113
0.43432156501232744,0.29838852504135893,-0.6746797861243442
0.4401125192124917,0.2983990393475482,-0.6747015404523506
0.4459034734126562,0.2984240620809099,-0.674760283578822
0.45169442761282047,0.29844440216005286,-0.6748113791634617
0.45748538181298487,0.29844410367345686,-0.6748161200285432
0.4632763360131492,0.29841781084110297,-0.6747596377059342
0.4690672902133136,0.29837295671265374,-0.6746571674614125
0.47485824441347796,0.29832588620480477,-0.6745460292167264
0.48064919861364236,0.2982938896776903,-0.6744674366561816
0.48644015281381076,0.29828699259732855,-0.6744469159846848
0.4922311070139711,0.29830336803406676,-0.674482564560118
0.4980220612141354,0.2983304452484272,-0.6745464919994983
0.5038130154142998,0.29835106228501157,-0.674598478575046
0.5096039696144683,0.2983516530428898,-0.6746051663073586
0.5153949238146285,0.2983285681073118,-0.6745556368680874
0.5211858780147929,0.2982895903388946,-0.6744661149372373
0.5269768322149572,0.29825002961364966,-0.674371794044178
0.5327677864151216,0.2982253459823314,-0.6743098787701423
0.538558740615286,0.29822384626766485,-0.6743019927408614
0.5443496948154504,0.2982428948253884,-0.674344249165256
0.5501406490156147,0.2982703573058455,-0.6744095227491018
0.5559316032157791,0.29829049800826346,-0.6744606359567527
0.5617225574159435,0.2982914671098965,-0.6744680550556962
0.5675135116161079,0.29827081707506636,-0.6744236770294546
0.5733044658162721,0.29823648081536713,-0.6743442722641071
0.5790954200164407,0.29820282977750645,-0.674263129656174
0.5848863742166008,0.2981837577268926,-0.6742140363788064
0.5906773284167653,0.2981861065119093,-0.674215274214786
0.5964682826169296,0.29820653377490053,-0.6742611880497373
0.602259236817094,0.29823324752897656,-0.674325195516281
0.6080501910172583,0.2982517119897383,-0.6743726503290408
0.6138411452174227,0.29825156746876114,-0.6743773432126798
0.6196320994175871,0.2982314753658173,-0.674333793755144
0.6254230536177514,0.2981996280031338,-0.6742595809836834
0.6312140078179158,0.2981697437029659,-0.6741867412841684
0.6370049620180801,0.2981545030235241,-0.6741464384413051
0.6427959162182446,0.29815956385284004,-0.6741542348631895
0.6485868704184089,0.2981809766779263,-0.6742029174644788
0.6543778246185733,0.2982071767228102,-0.6742661772842684
0.6601687788187376,0.2982245511417776,-0.6743112738481124
0.665959733018902,0.2982239027858503,-0.6743145915686632
0.6717506872190705,0.2982047425351302,-0.674272699385974
0.6775416414192308,0.29817540739806814,-0.674203734784852
0.6833325956193951,0.2981490001337551,-0.6741385659094288
0.6891235498195595,0.2981371223333419,-0.6741060253622294
0.6949145040197279,0.298144393102587,-0.6741192671723805
0.7007054582198883,0.2981663387901602,-0.6741696928551822
0.7064964124200526,0.29819161434417013,-0.6742312444486034
0.712287366620217,0.2982074559018695,-0.6742729274901669
0.7180783208203813,0.29820574661827015,-0.674273551654093
0.7238692750205457,0.29818681547163556,-0.6742316841629179
0.72966022922071,0.2981591926434747,-0.6741661437707115
0.7354511834208745,0.2981354785957368,-0.6741068868128535
0.7412421376210387,0.29812632366880015,-0.6740806907612784
0.7470330918212031,0.29813539093757585,-0.6740984685404019
0.7528240460213675,0.2981576817125894,-0.6741502166661694
0.7586150002215318,0.29818198690365094,-0.674209931880562
0.7644059544216962,0.29819626423739676,-0.6742480848485031
0.7701969086218605,0.2981933642330574,-0.6742456730739979
0.7759878628220249,0.2981743844067693,-0.6742031701967892
0.7817788170221893,0.2981480790578681,-0.6741401589249018
0.7875697712223536,0.29812663652939797,-0.6740858866004084
0.793360725422518,0.2981198576319361,-0.6740652908629479
0.7991516796226824,0.29813051260264345,-0.6740871648274682
0.8049426338228468,0.2981530739574877,-0.6741400732204381
0.8107335880230111,0.2981764035211033,-0.6741979142442576
0.8165245422231755,0.2981890893397249,-0.6742324265228987
0.8223154964233399,0.29818487753186845,-0.6742266536589552
0.8281064506235043,0.2981656152400545,-0.6741829552722518
0.8338974048236686,0.29814031998507784,-0.6741217799111546
0.839688359023833,0.2981208410468773,-0.6740718290325
0.8454793132239974,0.2981161971082184,-0.6740563357627245
0.8512702674241618,0.29812829316347833,-0.6740820114256406
0.857061221624326,0.29815104945055204,-0.6741359156052871
0.8628521758244905,0.2981733407994717,-0.674191710700914
0.8686431300246549,0.29818432813255474,-0.6742222845197132
0.8744340842248193,0.2981786301561215,-0.6742126986260294
0.8802250384249835,0.2981588695549047,-0.674167283034251
0.8860159926251479,0.29813438877840714,-0.6741075072449993
0.8918069468253124,0.2981167614018538,-0.6740616676848055
0.8975979010254765,0.2981142519761535,-0.6740513363062264
0.9033888552256409,0.29812787325542334,-0.6740810527878336
0.9091798094258053,0.29815092061257925,-0.6741361829875582
0.9149707636259697,0.2981721986664868,-0.674189956909994
0.920761717826134,0.2981813904812538,-0.6742163090526352
0.9265526720262984,0.2981739976336985,-0.6742023702007276
0.9323436262264628,0.2981534873653297,-0.6741546281266226
0.9381345804266272,0.29812962094880446,-0.6740958056058517
0.9439255346267915,0.2981137657116666,-0.6740539497935483
0.9497164888269559,0.2981134378141399,-0.6740489613151006
0.9555074430271203,0.29812869256267926,-0.6740830254546586
0.9612983972272847,0.29815209565143513,-0.6741395457946384
0.967089351427449,0.29817229329660455,-0.6741911078777496
0.9728803056276134,0.29817947187321725,-0.6742126638414452
0.9786712598277778,0.2981700862951024,-0.6741936082912972
0.9844622140279422,0.2981485805403191,-0.6741429277148455
0.9902531682281064,0.298125262748502,-0.6740849173209349
0.9960441224282708,0.29811134479273843,-0.6740474919682817
1.0018350766284352,0.29811352647355555,-0.6740486982897633
1.0076260308285996,0.2981307361550468,-0.6740879343647755
1.013416985028764,0.2981546143907585,-0.6741461505203115
1.0192079392289284,0.2981735299251661,-0.674194993272534
1.0249988934290928,0.29817820841760045,-0.6742105269077485
1.030789847629257,0.29816625810384123,-0.6741849125533107
1.0365808018294214,0.29814338607551905,-0.6741303522429116
1.0423717560295858,0.2981206813368132,-0.6740733009457915
1.0481627102297502,0.2981092436264681,-0.6740416569883887
1.0539536644299143,0.29811474374694835,-0.6740510939050602
1.0597446186300787,0.2981345710592006,-0.6740972035256713
1.0655355728302431,0.29815900444157106,-0.6741573902754268
1.0713265270304078,0.29817590435691405,-0.6742017615019822
1.077117481230572,0.2981766932618312,-0.6742078430869904
1.0829084354307363,0.2981607132525315,-0.6741719647482468
1.0886993896309007,0.29813577499050975,-0.6741116213746812
1.0944903438310651,0.2981145202658467,-0.674057392816672
1.1002812980312293,0.2981082603336561,-0.6740380841201329
1.1060722522313937,0.29812123923682654,-0.6740661829938905
1.1118632064315581,0.29814816048163606,-0.6741308074920196
1.1176541606317225,0.29817631975621206,-0.6742019005540214
1.123445114831887,0.2981914881466927,-0.6742440708120319
1.1292360690320513,0.298184830847952,-0.6742337157867726
1.1350270232322157,0.2981575355805392,-0.6741712190501636
1.14081797743238,0.29812080036835653,-0.6740820771289682
1.1466089316325443,0.2980909778771489,-0.6740059241053071
1.1523998858327087,0.298082002265064,-0.6739782265896422
1.158190840032873,0.29809862244933316,-0.6740131509741951
1.1639817942330373,0.2981337272352833,-0.6740958903490637
1.1697727484332017,0.2981712242376366,-0.6741885352836887
1.175563702633366,0.2981933360524297,-0.6742472428212274
1.1813546568335307,0.2981890139159663,-0.6742429483457875
1.1871456110336949,0.29815949076887727,-0.6741758417133404
1.1929365652338593,0.2981181872236115,-0.674076399066557
1.1987275194340237,0.29808475800446516,-0.6739918887117249
1.204518473634188,0.2980758596789806,-0.673964183733627
1.2103094278343522,0.29809691596437976,-0.6740091569682901
1.2161003820345166,0.298138898329136,-0.6741076788976998
1.221891336234681,0.2981819536819333,-0.6742131846396933
1.2276822904348454,0.2982045331551424,-0.6742730842554836
1.2334732446350098,0.29819395378319824,-0.6742544694988684
1.2392641988351742,0.29815336639036033,-0.6741618929411679
1.2450551530353386,0.29810146322913794,-0.6740379627617017
1.2508461072355028,0.29806444733906207,-0.6739450574488505
1.2566370614356672,0.29806344134036433,-0.6739353821689579
1.2624280156358316,0.29810298488845877,-0.6740228231013247
1.268218969835996,0.2981663504499307,-0.6741705712366419
1.2740099240361602,0.2982208983989629,-0.6743026712752408
1.2798008782363246,0.2982325392191615,-0.6743376994791699
1.2855918324364892,0.2981842902501773,-0.6742328277075557
1.2913827866366536,0.29809167395335856,-0.6740209218006479
1.2971737408368178,0.2980083540571191,-0.6738246832539772
1.3029646950369822,0.2980188036534014,-0.6738399105684187
1.3087556492371466,0.2982196426344559,-0.6742916118350901
1.314546603437311,0.29869563634578167,-0.6753772447571621
1.3203375576374752,0.29949845213933907,-0.6772164885965652
1.3261285118376396,0.3006352750673182,-0.6798245686622735
1.331919466037804,0.3020707005255755,-0.6831172507603801
1.3377104202379684,0.30374044468570655,-0.6869438458024599
1.3435013744381328,0.3055712871447541,-0.6911346568852549
1.3492923286382972,0.30749986834559895,-0.6955451105401098
1.3550832828384616,0.3094840904799077,-0.7000817206148522
1.360874237038626,0.3115042943978915,-0.7047034619071121
1.3666651912387902,0.3135555898185179,-0.7094023274758033
1.3724561454389546,0.31563596018506596,-0.7141745474802976
1.378247099639119,0.3177358162723754,-0.7189962063306861
1.3840380538392831,0.3198332987396402,-0.7238133393474943
1.3898290080394475,0.32189662494244764,-0.7285490833309343
1.395619962239608,0.32389155976327577,-0.733122648383051
1.4014109164397766,0.32579005780630393,-0.7374701762296392
1.4072018706399407,0.3275760424830684,-0.7415577362750274
1.4129928248401051,0.3292460081847697,-0.7453812699873934
1.4187837790402738,0.330804722816714,-0.7489547984181899
1.424574733240434,0.33225852400332373,-0.75229353184049
1.430365687440598,0.33360956522347773,-0.7554003039839667
1.4361566416407625,0.33485359157926764,-0.7582614297749668
1.441947595840931,0.33598189853273563,-0.7608530347363833
1.4477385500410913,0.3369860412658199,-0.7631536993617237
1.4535295042412557,0.33786261831107817,-0.7651564009214256
1.45932045844142,0.3386155935345361,-0.7668734691359279
1.4651114126415845,0.3392549989925808,-0.7683320707779363
1.470902366841749,0.33979274544881277,-0.7695626192818048
1.476693321041913,0.3402377146514571,-0.7705860390503035
1.4824842752420775,0.3405926241170195,-0.7714063052324638
1.4882752294422419,0.34085422055279824,-0.7720119617279471
1.4940661836424063,0.34101666438330985,-0.7723857945918038
1.4998571378425707,0.3410763653377385,-0.772517760757961
1.505648092042735,0.3410358062260559,-0.7724146447138931
1.5114390462429035,0.3409043953533195,-0.7721015206123294
1.5172300004430637,0.3406958616414775,-0.7716141342947198
1.523020954643228,0.3404234242825742,-0.7709858103016776
1.5288119088433925,0.3400950902731796,-0.7702352419811143
1.5346028630435569,0.3397114104855186,-0.7693611932622849
1.540393817243721,0.33926686451895705,-0.7683468739105352
1.5461847714438854,0.3387543016861963,-0.7671721073782305
1.5519757256440498,0.3381703759788466,-0.7658276171229085
1.5577666798442142,0.3375193928249325,-0.7643246374062365
1.5635576340443786,0.3368136900867019,-0.7626951607079961
1.569348588244543,0.33607027888878516,-0.7609824855700584
1.5751395424447072,0.33530521966908977,-0.7592262796692324
1.5809304966448718,0.33452828386852784,-0.757448981321654
1.586721450845036,0.3337403477479884,-0.7556498018885174
1.5925124050452006,0.33293473011744806,-0.7538091241503804
1.5983033592453648,0.3321018948647307,-0.7519013380419857
1.6040943134455332,0.3312354208163706,-0.7499103250897807
1.6098852676456936,0.3303365903084208,-0.7478406575468334
1.615676221845858,0.3294156034982419,-0.7457196126267671
1.6214671760460222,0.32848896806259875,-0.7435893309146829
1.627258130246191,0.3275743219888655,-0.7414928863865025
1.633049084446351,0.32668503941353366,-0.7394606414344126
1.6388400386465152,0.325826967746701,-0.7375028867485701
1.6446309928466798,0.3249985872154336,-0.7356116757887258
1.650421947046844,0.32419429419880724,-0.7337704729128115
1.6562129012470086,0.3234091363091286,-0.7319667695621237
1.6620038554471728,0.32264278874685126,-0.7302017556013772
1.6677948096473372,0.32190106163300447,-0.7284928523736947
1.6735857638475018,0.3211944754522104,-0.7268684802618695
1.679376718047666,0.32053480754459523,-0.7253580672849285
1.6851676722478302,0.31993134376545646,-0.7239822676974842
1.6909586264479948,0.31938850381624995,-0.7227477906661743
1.6967495806481632,0.31890563945359257,-0.7216485500364198
1.7025405348483236,0.3184786177518948,-0.7206714827652176
1.7083314890484878,0.31810192140974214,-0.7198030853577786
1.714122443248652,0.31776987034391635,-0.7190326423756824
1.7199133974488165,0.3174762371173815,-0.7183502673495364
1.725704351648981,0.3172126165533859,-0.7177410891842692
1.7314953058491451,0.3169668155901099,-0.7171794736414117
1.7372862600493097,0.31672273725566175,-0.7166276561958518
1.743077214249474,0.316462583737083,-0.7160412079210549
1.7488681684496385,0.3161709899607308,-0.7153802507307119
1.7546591226498027,0.3158395300276923,-0.7146220236766014
1.760450076849967,0.3154695405581635,-0.7137690181757751
1.7662410310501315,0.31507170099027754,-0.7128483063514713
1.7720319852502957,0.314662141275774,-0.7119013903306435
1.77782293945046,0.3142564225590902,-0.7109682384204431
1.7836138936506247,0.3138638065069119,-0.7100720796606417
1.7894048478507931,0.31348424469360064,-0.7092115237659504
1.795195802050953,0.3131094102911363,-0.7083635138498758
1.8009867562511177,0.3127273253072986,-0.7074958157012624
1.8067777104512819,0.3123285083190386,-0.7065833923384751
1.8125686646514503,0.31191084676041275,-0.7056211627679183
1.8183596188516107,0.3114809506627911,-0.7046272361858682
1.824150573051775,0.31105134948703805,-0.7036350861690505
1.8299415272519395,0.310634826737895,-0.7026782942166185
1.8357324814521039,0.31023855043899073,-0.7017750384251958
1.841523435652268,0.3098607983305106,-0.7009197305076302
1.8473143898524327,0.3094919015586396,-0.7000859414164943
1.8531053440525969,0.3091190639857895,-0.6992394743331715
1.8588962982527615,0.30873286541466755,-0.6983555977048727
1.8646872524529257,0.30833240041255056,-0.6974323373582036
1.8704782066530898,0.30792656646560945,-0.6964933978888055
1.8762691608532545,0.3075307634057189,-0.6955790265512622
1.8820601150534186,0.3071604042926289,-0.694728772378604
1.887851069253583,0.30682416932700607,-0.693963990248916
1.8936420234537477,0.3065201263119711,-0.6932782270206995
1.8994329776539118,0.3062365753448143,-0.6926401029596866
1.905223931854076,0.3059573156097191,-0.6920075540596783
1.9110148860542406,0.3056689725904097,-0.691346989448471
1.9168058402544048,0.3053670305327896,-0.6906485412954334
1.9225967944545694,0.30505777093927877,-0.6899303016544828
1.9283877486547336,0.3047551886977007,-0.6892295053492439
1.934178702854898,0.3044742882379992,-0.6885847007923022
1.9399696570550624,0.30422386839117,-0.6880172104807477
1.9457606112552268,0.3040021776431767,-0.6875205959416495
